Time		H (m)		IAS (km/h)	G_vert 		G_horiz 	RPM 		AoA 		Hydro_m 	Hydro_b 	SAU 		Fors 		Trigger 
618.000000	3235.985107	746.475342	1.773247	0.096102	90.045113	6.581848	210.000000	210.000000	0.000000	0.000000	0.000000	
619.000000	3137.304443	762.955688	1.846165	0.091486	90.003113	6.592524	210.000000	210.000000	0.000000	0.000000	0.000000	
620.000000	3032.751221	779.957581	1.896440	0.087523	90.015114	6.490578	210.000000	210.000000	0.000000	0.000000	0.000000	
621.000000	2923.543457	797.491150	1.960058	0.083223	90.027115	6.435171	210.000000	210.000000	0.000000	0.000000	0.000000	
622.000000	2811.059570	815.537781	2.020149	0.077660	89.985115	6.360160	210.000000	210.000000	0.000000	0.000000	0.000000	
623.000000	2694.684570	833.757080	2.082686	0.072770	89.997108	6.288367	210.000000	210.000000	0.000000	0.000000	0.000000	
624.000000	2575.869141	852.089600	2.142490	0.064083	90.009109	6.204203	210.000000	210.000000	0.000000	0.000000	0.000000	
625.000000	2456.250488	870.288269	2.539731	0.055397	89.967110	7.337058	210.000000	210.000000	0.000000	0.000000	0.000000	
626.000000	2338.514160	887.552429	1.760362	0.044031	89.979111	4.344599	210.000000	210.000000	0.000000	0.000000	0.000000	
627.000000	2224.396729	904.808167	2.160378	0.032779	89.991112	5.432783	210.000000	210.000000	0.000000	0.000000	0.000000	
628.000000	2117.380615	919.137512	2.300158	0.022453	89.949112	5.687438	210.000000	210.000000	0.000000	0.000000	0.000000	
629.000000	2019.123901	932.472961	2.449056	0.014591	89.961113	5.967573	210.000000	210.000000	0.000000	0.000000	0.000000	
630.000000	1932.561157	943.819946	2.440491	0.007764	89.973114	5.779486	210.000000	210.000000	0.000000	0.000000	0.000000	
631.000000	1859.022339	952.988403	2.352608	0.003209	90.045113	5.367914	210.000000	210.000000	0.000000	0.000000	0.000000	
632.000000	1799.701782	957.655273	3.678430	0.012489	89.943115	9.224574	210.000000	210.000000	0.000000	0.000000	0.000000	
633.000000	1761.856934	958.891541	2.964669	0.004376	89.955109	7.177513	210.000000	210.000000	0.000000	0.000000	0.000000	
634.000000	1743.008667	955.813721	2.981795	-0.073084	85.809113	7.268350	210.000000	210.000000	0.000000	0.000000	0.000000	
635.000000	1743.053223	948.132629	2.896857	-0.091433	84.339111	7.121567	210.000000	210.000000	0.000000	0.000000	0.000000	
636.000000	1760.922241	938.203979	2.301906	-0.079371	84.693115	5.402990	210.000000	210.000000	0.000000	0.000000	0.000000	
637.000000	1791.759521	928.507629	2.156997	-0.067536	84.879112	5.029227	210.000000	210.000000	0.000000	0.000000	0.000000	
638.000000	1831.853027	919.268738	1.960418	-0.058234	84.891113	4.552778	210.000000	210.000000	0.000000	0.000000	0.000000	
639.000000	1878.410767	907.949402	2.024329	-0.049425	84.903114	4.897151	210.000000	210.000000	0.000000	0.000000	0.000000	
640.000000	1929.565918	897.016357	0.585929	-0.024677	84.975113	0.116567	210.000000	210.000000	0.000000	0.000000	0.000000	
641.000000	1979.048706	888.135620	1.185619	-0.027267	84.987114	2.158459	210.000000	210.000000	0.000000	0.000000	0.000000	
642.000000	2027.236084	879.473999	0.895912	-0.017216	84.999115	1.240939	210.000000	210.000000	0.000000	0.000000	0.000000	
643.000000	2073.465332	871.320801	0.940592	-0.013276	84.957115	1.442823	210.000000	210.000000	0.000000	0.000000	0.000000	
644.000000	2118.594238	863.621399	0.931194	-0.009430	84.969109	1.461001	210.000000	210.000000	0.000000	0.000000	0.000000	
645.000000	2162.233154	856.194214	0.893922	-0.005769	84.981110	1.377815	210.000000	210.000000	0.000000	0.000000	0.000000	
646.000000	2204.099609	849.172729	0.895307	-0.001916	85.053116	1.427578	210.000000	210.000000	0.000000	0.000000	0.000000	
647.000000	2244.659424	842.514221	0.857148	0.001413	85.065109	1.329561	210.000000	210.000000	0.000000	0.000000	0.000000	
648.000000	2283.461670	836.826904	0.836446	0.004279	85.077110	1.291574	210.000000	210.000000	0.000000	0.000000	0.000000	
649.000000	2320.147705	830.932068	0.813066	0.006137	85.035110	1.239300	210.000000	210.000000	0.000000	0.000000	0.000000	
650.000000	2355.000488	825.461182	0.791966	0.008642	85.047112	1.192014	210.000000	210.000000	0.000000	0.000000	0.000000	
651.000000	2387.649902	820.405396	0.773814	0.010911	85.059113	1.152260	210.000000	210.000000	0.000000	0.000000	0.000000	
652.000000	2417.770264	815.844482	0.749316	0.014030	85.131111	1.082966	210.000000	210.000000	0.000000	0.000000	0.000000	
653.000000	2445.541260	811.767517	0.737796	0.015804	85.143112	1.061350	210.000000	210.000000	0.000000	0.000000	0.000000	
654.000000	2470.601318	808.184143	0.714776	0.017600	85.155113	0.990506	210.000000	210.000000	0.000000	0.000000	0.000000	
655.000000	2492.483154	805.185364	0.675192	0.018643	85.113113	0.844887	210.000000	210.000000	0.000000	0.000000	0.000000	
656.000000	2510.887695	802.842529	0.678498	0.019530	85.125114	0.871625	210.000000	210.000000	0.000000	0.000000	0.000000	
657.000000	2525.410645	801.100281	0.751690	0.018932	85.137115	1.183680	210.000000	210.000000	0.000000	0.000000	0.000000	
658.000000	2536.483398	800.053040	0.708248	0.019108	85.095116	1.094299	210.000000	210.000000	0.000000	0.000000	0.000000	
659.000000	2545.572754	798.619629	1.413813	0.010058	85.107109	3.996617	210.000000	210.000000	0.000000	0.000000	0.000000	
660.000000	2556.773682	796.478271	1.144036	0.014033	85.119110	2.935333	210.000000	210.000000	0.000000	0.000000	0.000000	
661.000000	2569.382568	794.192627	1.265809	0.012666	85.077110	3.449791	210.000000	210.000000	0.000000	0.000000	0.000000	
662.000000	2583.882813	791.667908	1.184265	0.014725	85.089111	3.145488	210.000000	210.000000	0.000000	0.000000	0.000000	
663.000000	2600.002441	788.495728	1.807042	0.010683	85.101112	5.841430	210.000000	210.000000	0.000000	0.000000	0.000000	
664.000000	2621.285889	783.332947	1.450073	0.015687	85.173111	4.412848	210.000000	210.000000	0.000000	0.000000	0.000000	
665.000000	2646.672607	778.565369	1.485439	0.017386	85.185112	4.620085	210.000000	210.000000	0.000000	0.000000	0.000000	
666.000000	2675.441162	773.129028	1.365562	0.020458	85.197113	4.151283	210.000000	210.000000	0.000000	0.000000	0.000000	
667.000000	2706.667236	767.833862	1.189012	0.023596	85.155113	3.456023	210.000000	210.000000	0.000000	0.000000	0.000000	
668.000000	2739.699219	762.877380	1.200932	0.025284	85.167114	3.564758	210.000000	210.000000	0.000000	0.000000	0.000000	
669.000000	2774.327881	757.304260	1.151415	0.027818	85.179115	3.412790	210.000000	210.000000	0.000000	0.000000	0.000000	
670.000000	2809.962646	751.622742	1.001252	0.030947	85.137115	2.772530	210.000000	210.000000	0.000000	0.000000	0.000000	
671.000000	2845.894043	746.286316	1.010543	0.032622	85.149109	2.870551	210.000000	210.000000	0.000000	0.000000	0.000000	
672.000000	2881.594482	740.950378	0.962642	0.034961	85.161110	2.708233	210.000000	210.000000	0.000000	0.000000	0.000000	
673.000000	2916.716309	735.807068	0.970061	0.037326	85.233109	2.796691	210.000000	210.000000	0.000000	0.000000	0.000000	
674.000000	2951.565430	730.736877	0.938675	0.039329	85.245110	2.703361	210.000000	210.000000	0.000000	0.000000	0.000000	
675.000000	2985.749023	725.888672	0.923710	0.041026	85.257111	2.682232	210.000000	210.000000	0.000000	0.000000	0.000000	
676.000000	3018.890381	721.233521	0.908991	0.041862	85.215111	2.660922	210.000000	210.000000	0.000000	0.000000	0.000000	
677.000000	3051.249268	716.768433	0.895706	0.043374	85.227112	2.643898	210.000000	210.000000	0.000000	0.000000	0.000000	
Time		H (m)		IAS (km/h)	G_vert 		G_horiz 	RPM 		AoA 		Hydro_m 	Hydro_b 	SAU 		Fors 		Trigger 
678.000000	3082.490479	712.978821	0.882804	0.044844	85.239113	2.625951	210.000000	210.000000	0.000000	0.000000	0.000000	
679.000000	3112.314941	708.979858	0.871053	0.047059	85.311111	2.610144	210.000000	210.000000	0.000000	0.000000	0.000000	
680.000000	3141.017822	705.236023	0.916488	0.045806	85.209114	2.901201	210.000000	210.000000	0.000000	0.000000	0.000000	
681.000000	3168.850342	701.537354	0.931472	0.049802	85.449112	3.024616	210.000000	210.000000	0.000000	0.000000	0.000000	
682.000000	3195.858398	698.298645	0.937173	0.067856	86.661110	3.085500	210.000000	210.000000	0.000000	0.000000	0.000000	
683.000000	3222.219971	695.691589	0.865539	0.078113	87.243111	2.743156	210.000000	210.000000	0.000000	0.000000	0.000000	
684.000000	3247.292236	693.546631	0.876945	0.081853	87.483109	2.826390	210.000000	210.000000	0.000000	0.000000	0.000000	
685.000000	3270.901611	691.666016	0.861729	0.083401	87.555115	2.769245	210.000000	210.000000	0.000000	0.000000	0.000000	
686.000000	3293.261475	690.087402	0.850096	0.083925	87.567116	2.723356	210.000000	210.000000	0.000000	0.000000	0.000000	
687.000000	3314.105957	688.806458	0.837239	0.084375	87.579109	2.677248	210.000000	210.000000	0.000000	0.000000	0.000000	
688.000000	3333.433105	687.738037	1.014721	0.080976	87.537109	3.647082	210.000000	210.000000	0.000000	0.000000	0.000000	
689.000000	3352.517090	686.473999	0.872107	0.083412	87.549110	2.910380	210.000000	210.000000	0.000000	0.000000	0.000000	
690.000000	3370.695557	685.492554	0.996716	0.081679	87.561111	3.596920	210.000000	210.000000	0.000000	0.000000	0.000000	
691.000000	3388.501221	684.343262	0.948995	0.081773	87.519112	3.360213	210.000000	210.000000	0.000000	0.000000	0.000000	
692.000000	3406.070068	683.374573	0.969115	0.081699	87.531113	3.480269	210.000000	210.000000	0.000000	0.000000	0.000000	
693.000000	3423.291992	682.408325	0.954011	0.082106	87.543114	3.413324	210.000000	210.000000	0.000000	0.000000	0.000000	
694.000000	3440.032471	681.539917	0.957601	0.083127	87.615112	3.444370	210.000000	210.000000	0.000000	0.000000	0.000000	
695.000000	3456.471191	680.730347	0.952123	0.081669	87.513115	3.426430	210.000000	210.000000	0.000000	0.000000	0.000000	
696.000000	3472.484375	680.005981	0.951339	0.081824	87.525108	3.432376	210.000000	210.000000	0.000000	0.000000	0.000000	
697.000000	3487.957764	679.349243	0.948751	0.082873	87.597115	3.427700	210.000000	210.000000	0.000000	0.000000	0.000000	
698.000000	3503.060303	678.835083	0.947205	0.083000	87.609116	3.427534	210.000000	210.000000	0.000000	0.000000	0.000000	
699.000000	3517.677979	678.335876	0.943770	0.083136	87.621109	3.415123	210.000000	210.000000	0.000000	0.000000	0.000000	
700.000000	3531.693604	677.935486	0.940675	0.082451	87.579109	3.404210	210.000000	210.000000	0.000000	0.000000	0.000000	
701.000000	3545.248535	677.624512	0.940887	0.082486	87.591110	3.409922	210.000000	210.000000	0.000000	0.000000	0.000000	
702.000000	3558.252686	677.404358	0.939405	0.082531	87.603111	3.405339	210.000000	210.000000	0.000000	0.000000	0.000000	
703.000000	3570.619629	677.275513	0.939475	0.081735	87.561111	3.407889	210.000000	210.000000	0.000000	0.000000	0.000000	
704.000000	3582.494873	677.240540	0.938909	0.081724	87.573112	3.405812	210.000000	210.000000	0.000000	0.000000	0.000000	
705.000000	3593.855225	677.233765	0.996168	0.080828	87.585114	3.727551	210.000000	210.000000	0.000000	0.000000	0.000000	
706.000000	3605.024170	677.131226	1.103534	0.078554	87.543114	4.373646	210.000000	210.000000	0.000000	0.000000	0.000000	
707.000000	3617.441162	676.122253	1.276224	0.076520	87.555115	5.334960	210.000000	210.000000	0.000000	0.000000	0.000000	
708.000000	3632.257324	674.862671	1.177701	0.078086	87.567116	4.826636	210.000000	210.000000	0.000000	0.000000	0.000000	
709.000000	3648.803467	673.417480	1.227950	0.078736	87.639114	5.126743	210.000000	210.000000	0.000000	0.000000	0.000000	
710.000000	3667.465576	671.522766	1.189646	0.078024	87.537109	4.952477	210.000000	210.000000	0.000000	0.000000	0.000000	
711.000000	3687.892578	669.329102	1.201288	0.078412	87.549110	5.055061	210.000000	210.000000	0.000000	0.000000	0.000000	
712.000000	3709.933594	666.860840	1.200532	0.079889	87.621109	5.100607	210.000000	210.000000	0.000000	0.000000	0.000000	
713.000000	3733.856934	664.061035	1.196977	0.080572	87.633110	5.131761	210.000000	210.000000	0.000000	0.000000	0.000000	
714.000000	3759.525146	660.997864	1.183533	0.081448	87.645111	5.112207	210.000000	210.000000	0.000000	0.000000	0.000000	
715.000000	3786.668457	657.685181	1.176331	0.081500	87.603111	5.131881	210.000000	210.000000	0.000000	0.000000	0.000000	
716.000000	3815.554199	654.139465	1.163276	0.082454	87.615112	5.122931	210.000000	210.000000	0.000000	0.000000	0.000000	
717.000000	3845.922119	650.343018	1.153232	0.083403	87.627113	5.135049	210.000000	210.000000	0.000000	0.000000	0.000000	
718.000000	3877.488770	646.363159	1.140147	0.083652	87.585114	5.132696	210.000000	210.000000	0.000000	0.000000	0.000000	
719.000000	3910.523438	642.599609	1.128306	0.084683	87.597115	5.141298	210.000000	210.000000	0.000000	0.000000	0.000000	
720.000000	3944.730957	638.278076	1.111940	0.085798	87.609116	5.121156	210.000000	210.000000	0.000000	0.000000	0.000000	
721.000000	3979.711914	633.865173	1.070395	0.088094	87.681114	4.950480	210.000000	210.000000	0.000000	0.000000	0.000000	
722.000000	4015.576416	629.378906	1.044510	0.087751	87.579109	4.863635	210.000000	210.000000	0.000000	0.000000	0.000000	
723.000000	4051.799316	624.975098	1.014769	0.089067	87.591110	4.753973	210.000000	210.000000	0.000000	0.000000	0.000000	
724.000000	4087.843750	620.610779	0.977961	0.091244	87.663109	4.600806	210.000000	210.000000	0.000000	0.000000	0.000000	
725.000000	4123.879883	616.321899	0.980905	0.091996	87.675110	4.696370	210.000000	210.000000	0.000000	0.000000	0.000000	
726.000000	4159.623047	612.122925	0.936675	0.093425	87.687111	4.479228	210.000000	210.000000	0.000000	0.000000	0.000000	
727.000000	4194.544434	608.153381	0.918396	0.093698	87.645111	4.429674	210.000000	210.000000	0.000000	0.000000	0.000000	
728.000000	4228.874512	604.283813	0.914250	0.094413	87.657112	4.471581	210.000000	210.000000	0.000000	0.000000	0.000000	
729.000000	4262.351074	600.987305	0.895026	0.095347	87.669113	4.410220	210.000000	210.000000	0.000000	0.000000	0.000000	
730.000000	4294.587402	597.544373	0.846651	0.096000	87.627113	4.130709	210.000000	210.000000	0.000000	0.000000	0.000000	
731.000000	4325.570801	594.456665	0.796961	0.097372	87.639114	3.828901	210.000000	210.000000	0.000000	0.000000	0.000000	
732.000000	4354.653809	591.789734	0.805097	0.097650	87.651115	3.930139	210.000000	210.000000	0.000000	0.000000	0.000000	
733.000000	4381.639648	589.418884	0.803596	0.098796	87.723114	3.965473	210.000000	210.000000	0.000000	0.000000	0.000000	
734.000000	4406.871582	587.366333	0.810228	0.098972	87.735115	4.048306	210.000000	210.000000	0.000000	0.000000	0.000000	
735.000000	4430.216797	585.640747	0.799766	0.097877	87.633110	4.005339	210.000000	210.000000	0.000000	0.000000	0.000000	
736.000000	4451.501465	584.267883	0.797213	0.098893	87.705109	4.011533	210.000000	210.000000	0.000000	0.000000	0.000000	
737.000000	4470.953613	583.224365	0.794531	0.099057	87.717110	4.011035	210.000000	210.000000	0.000000	0.000000	0.000000	
Time		H (m)		IAS (km/h)	G_vert 		G_horiz 	RPM 		AoA 		Hydro_m 	Hydro_b 	SAU 		Fors 		Trigger 
738.000000	4488.420410	582.534607	0.791489	0.099173	87.729111	4.002108	210.000000	210.000000	0.000000	0.000000	0.000000	
739.000000	4503.792480	582.206360	0.791486	0.098469	87.687111	4.008715	210.000000	210.000000	0.000000	0.000000	0.000000	
740.000000	4517.250000	582.169678	0.790431	0.098439	87.699112	4.002065	210.000000	210.000000	0.000000	0.000000	0.000000	
741.000000	4528.686035	582.476196	0.788939	0.098359	87.711113	3.986465	210.000000	210.000000	0.000000	0.000000	0.000000	
742.000000	4538.046387	583.119690	0.806287	0.097186	87.669113	4.106431	210.000000	210.000000	0.000000	0.000000	0.000000	
743.000000	4545.600586	583.998108	0.846844	0.096290	87.681114	4.387564	210.000000	210.000000	0.000000	0.000000	0.000000	
744.000000	4551.589844	585.078186	0.835152	0.096252	87.693115	4.285790	210.000000	210.000000	0.000000	0.000000	0.000000	
745.000000	4555.956543	586.461670	0.856321	0.094877	87.651115	4.462936	210.000000	210.000000	0.000000	0.000000	0.000000	
746.000000	4559.239746	587.613892	1.046776	0.091751	87.663109	5.770239	210.000000	210.000000	0.000000	0.000000	0.000000	
747.000000	4562.575684	588.677002	0.953092	0.092921	87.675110	5.103065	210.000000	210.000000	0.000000	0.000000	0.000000	
748.000000	4565.489746	589.840210	1.046959	0.092201	87.747108	5.739733	210.000000	210.000000	0.000000	0.000000	0.000000	
749.000000	4568.495605	590.674438	1.031220	0.092203	87.759109	5.624278	210.000000	210.000000	0.000000	0.000000	0.000000	
750.000000	4571.656738	591.621216	1.074592	0.090027	87.657112	5.902917	210.000000	210.000000	0.000000	0.000000	0.000000	
751.000000	4575.189941	592.380737	1.065097	0.090810	87.729111	5.821712	210.000000	210.000000	0.000000	0.000000	0.000000	
752.000000	4579.162598	593.126160	1.065148	0.090736	87.741112	5.806114	210.000000	210.000000	0.000000	0.000000	0.000000	
753.000000	4583.554688	593.754211	1.074076	0.090530	87.753113	5.853355	210.000000	210.000000	0.000000	0.000000	0.000000	
754.000000	4588.416992	594.308960	1.068709	0.089835	87.711113	5.805339	210.000000	210.000000	0.000000	0.000000	0.000000	
755.000000	4593.798828	594.764954	1.075525	0.089697	87.723114	5.841873	210.000000	210.000000	0.000000	0.000000	0.000000	
756.000000	4599.725098	595.122498	1.072627	0.089707	87.735115	5.814557	210.000000	210.000000	0.000000	0.000000	0.000000	
757.000000	4606.151367	595.389709	1.074605	0.088961	87.693115	5.821361	210.000000	210.000000	0.000000	0.000000	0.000000	
758.000000	4613.158203	595.565308	1.070510	0.089016	87.705109	5.790146	210.000000	210.000000	0.000000	0.000000	0.000000	
759.000000	4620.687988	595.649109	1.073526	0.088995	87.717110	5.809055	210.000000	210.000000	0.000000	0.000000	0.000000	
760.000000	4628.705566	595.648499	1.072205	0.088337	87.675110	5.800678	210.000000	210.000000	0.000000	0.000000	0.000000	
761.000000	4637.300781	595.559692	1.072392	0.088384	87.687111	5.804432	210.000000	210.000000	0.000000	0.000000	0.000000	
762.000000	4646.422363	595.377563	1.070510	0.088473	87.699112	5.795666	210.000000	210.000000	0.000000	0.000000	0.000000	
763.000000	4655.991211	595.117065	1.069059	0.089360	87.771111	5.792060	210.000000	210.000000	0.000000	0.000000	0.000000	
764.000000	4666.101563	594.771667	1.068445	0.087966	87.669113	5.795856	210.000000	210.000000	0.000000	0.000000	0.000000	
765.000000	4676.682617	594.349060	1.066527	0.088097	87.681114	5.792573	210.000000	210.000000	0.000000	0.000000	0.000000	
766.000000	4687.644043	593.853271	1.065870	0.089007	87.753113	5.799876	210.000000	210.000000	0.000000	0.000000	0.000000	
767.000000	4699.108887	593.278442	1.067980	0.089110	87.765114	5.828406	210.000000	210.000000	0.000000	0.000000	0.000000	
768.000000	4711.024902	592.617554	1.065229	0.089288	87.777115	5.824699	210.000000	210.000000	0.000000	0.000000	0.000000	
769.000000	4723.302246	591.972534	1.062629	0.088776	87.735115	5.820442	210.000000	210.000000	0.000000	0.000000	0.000000	
770.000000	4736.048828	591.209717	1.050266	0.089096	87.747108	5.753073	210.000000	210.000000	0.000000	0.000000	0.000000	
771.000000	4749.103027	590.413208	1.042214	0.089368	87.759109	5.710990	210.000000	210.000000	0.000000	0.000000	0.000000	
772.000000	4762.288086	589.617493	1.035301	0.088927	87.717110	5.681131	210.000000	210.000000	0.000000	0.000000	0.000000	
773.000000	4775.690430	588.794006	1.037502	0.089061	87.729111	5.714977	210.000000	210.000000	0.000000	0.000000	0.000000	
774.000000	4789.219238	587.949036	1.031343	0.089311	87.741112	5.691267	210.000000	210.000000	0.000000	0.000000	0.000000	
775.000000	4802.735840	587.102051	1.031032	0.088785	87.699112	5.708120	210.000000	210.000000	0.000000	0.000000	0.000000	
776.000000	4816.372070	586.249756	1.027285	0.089003	87.711113	5.701366	210.000000	210.000000	0.000000	0.000000	0.000000	
777.000000	4830.002930	585.400085	1.025133	0.089198	87.723114	5.705414	210.000000	210.000000	0.000000	0.000000	0.000000	
778.000000	4843.507813	584.564148	1.022581	0.090170	87.795113	5.706517	210.000000	210.000000	0.000000	0.000000	0.000000	
779.000000	4857.010742	583.823242	1.019928	0.088899	87.693115	5.706418	210.000000	210.000000	0.000000	0.000000	0.000000	
